# Energy profile
1         0.00000   0.00000   -350.10040          0.00000             
2         1.27912   0.06172   -350.09681          2.25426             
3         2.52300   0.12173   -350.10690          -4.07484            
4         3.84424   0.18548   -350.10774          -4.60314            
5         5.15751   0.24885   -350.11315          -7.99850            
6         6.45964   0.31167   -350.11673          -10.24516           
7         7.77248   0.37502   -350.10862          -5.15482            
8         9.04155   0.43625   -350.07752          14.35595            
9         10.38803  0.50122   -350.01021          56.59696            
10        11.55316  0.55743   -350.08958          6.78880             
11        12.79289  0.61725   -350.11794          -11.00770           
12        14.09285  0.67997   -350.12726          -16.85120           
13        15.39784  0.74294   -350.12995          -18.54213           
14        16.71041  0.80627   -350.13293          -20.41140           
15        18.00769  0.86886   -350.13790          -23.53213           
16        19.36318  0.93427   -350.14346          -27.02152           
17        20.72557  1.00000   -350.14549          -28.29600           
